403.017	117.844
406.089	120.844
409.158	121.844
412.228	122.656
415.295	123.375
418.364	122.594
421.429	124.844
424.495	127.344
427.558	126.156
430.622	126.469
433.683	123.406
436.743	126.781
439.804	126.781
442.862	126.031
445.919	127.063
448.977	127.469
452.032	129.281
455.086	127.656
458.138	129.406
461.19	128.906
464.243	132.25
467.293	132.062
470.342	134.812
473.39	133.313
476.436	134.719
479.482	134.656
482.527	135.688
485.571	135.625
488.611	137.937
491.653	134.625
494.694	135.281
497.733	137.563
500.772	136.094
503.81	137.844
506.844	138.063
509.88	135
512.915	137.469
515.946	139
518.979	139.719
522.009	139.281
525.039	144.656
528.069	144.844
531.095	146.219
534.123	145.812
537.148	148.219
540.171	148.75
543.196	151.844
546.217	150.437
549.238	149.937
552.26	152.688
555.278	151.344
558.296	150.406
561.312	151.312
564.33	151.094
567.345	151.781
570.358	150.562
573.371	152.438
576.382	151.625
579.393	153.5
582.403	153.656
585.411	154.156
588.419	156.437
591.425	157.781
594.431	158.844
597.434	154.563
600.437	160
603.44	160.438
606.442	160.219
609.442	160.5
612.44	160.906
615.439	162.5
618.434	162.344
621.431	163.031
624.427	164.281
627.419	164.469
630.413	165.062
633.404	166.281
636.394	170.187
639.385	170.406
642.372	170.156
645.361	175.094
648.347	173.187
651.332	173.656
654.316	170.938
657.301	174.844
660.283	176.781
663.264	175.437
666.243	176.063
669.222	175.906
672.2	176.719
675.177	177.5
678.154	176.531
681.129	178.438
684.103	176.781
687.076	180.312
690.048	176.438
693.017	182.094
695.987	182.094
698.956	182.781
701.925	186.625
704.89	185.25
707.856	187.719
710.822	186.094
713.784	189.375
716.747	189.375
719.708	191.75
722.669	191.625
725.628	189.5
728.585	193.125
731.544	191.594
734.499	194.406
737.454	195.469
740.409	195.219
743.362	197.656
746.314	197.531
749.264	196.875
752.214	199.75
755.163	199.125
758.111	201.031
761.058	204.5
764.004	204.406
766.949	206.406
769.893	206.469
772.836	207.344
775.778	206.625
778.719	210.75
781.657	212.781
784.596	211.656
787.534	214.063
790.472	214.937
793.406	215.531
796.341	215.406
799.274	217.563
802.207	217.125
805.138	220.156
808.069	220.812
810.998	222.562
813.926	223.062
816.854	225.188
819.78	229.938
822.705	229.625
825.629	228.344
828.554	231.531
831.475	232.25
834.396	232.625
837.316	232.438
840.236	237.312
843.154	237.469
846.071	238.219
848.987	239.25
851.902	237.469
854.817	239.656
857.728	241.594
860.641	246.5
863.552	247.75
866.461	245.594
869.37	248.187
872.279	248.938
875.185	253.281
878.092	252.188
880.996	256.187
883.901	254.5
886.802	259.906
889.704	262.156
892.606	264.156
895.505	264.781
898.403	268.781
901.302	265
904.199	268.438
907.094	270.562
909.989	273.625
912.882	276.031
915.775	274.125
918.667	276.781
921.557	278.062
924.447	281.75
927.336	279.625
930.222	281.812
933.109	281.531
935.995	286.062
938.88	283.906
941.763	287.344
944.646	291.25
947.528	290.063
950.408	294.312
953.288	296.188
956.166	295.75
959.043	302.562
961.92	306.469
964.795	306.594
967.669	308.625
970.544	311.781
973.416	315.094
976.287	317.312
979.157	318.188
982.027	319.313
984.895	319.125
987.763	323.375
990.629	322.094
993.495	327.25
996.359	327.031
999.223	324.812
1002.08	328.781
1004.95	330.719
1007.81	333.781
1010.67	332.812
1013.52	337.438
1016.38	338.031
1019.24	342.688
1022.09	341.187
1024.95	345.5
1027.8	348.156
1030.65	351.031
1033.5	351.75
1036.35	356.969
1039.21	355.875
1042.05	361.344
1044.9	364.844
1047.75	365.937
1050.59	370.937
1053.44	366.531
1056.28	369.594
1059.12	369.469
1061.96	376.125
1064.81	371.375
1067.65	374.312
1070.48	373.812
1073.32	381.75
1076.16	382.375
1078.99	379.625
1081.83	386.406
1084.66	386.312
1087.49	392.375
1090.32	392.563
1093.16	397.812
1095.98	403.062
1098.81	402.063
1101.64	404.656
1104.47	407.844
1107.29	412.75
1110.12	416.25
1112.94	418.281
1115.76	420.156
1118.58	422.312
1121.41	424.906
1124.23	425.031
1127.04	430.438
1129.86	431.594
1132.68	433.219
1135.49	437.781
1138.31	436.875
1141.12	435.687
1143.94	442.625
1146.75	439.938
1149.56	446.531
1152.37	449.094
1155.18	447.625
1157.98	459.219
1160.79	458.531
1163.6	463.219
1166.4	466.937
1169.21	469.719
1172.01	475.719
1174.81	479.219
1177.61	480.938
1180.41	485.156
1183.21	484.5
1186.01	494.219
1188.8	490.938
1191.6	493.375
1194.4	497.719
1197.19	500.188
1199.98	503.594
1202.78	504.25
1205.57	508.719
1208.36	512.375
1211.15	512.125
1213.93	519.344
1216.72	522.156
1219.51	524.406
1222.29	522.812
1225.08	530.406
1227.86	535.094
1230.64	537.719
1233.43	542.344
1236.2	548.688
1238.98	551.313
1241.76	555.188
1244.54	564.188
1247.32	566.688
1250.09	569.437
1252.87	574.406
1255.64	580.531
1258.41	583.344
1261.18	585.562
1263.96	588.781
1266.73	599.094
1269.49	600.625
1272.26	611.156
1275.03	611.25
1277.79	610.719
1280.56	614
1283.32	614.5
1286.09	627.906
1288.85	621.219
1291.61	621.688
1294.37	625.344
1297.13	635.344
1299.89	635.875
1302.64	641.719
1305.4	640.281
1308.15	649.188
1310.91	650.781
1313.66	647.469
1316.41	653.719
1319.17	658.031
1321.92	661.563
1324.67	665.594
1327.42	668.875
1330.16	673.563
1332.91	676.031
1335.65	686.656
1338.4	690.188
1341.14	696.469
1343.88	701.156
1346.63	700.75
1349.37	710.344
1352.11	712.219
1354.85	716.563
1357.59	720.469
1360.32	725.281
1363.06	729.594
1365.79	730.906
1368.53	734.5
1371.26	739.938
1373.99	744.531
1376.72	751.594
1379.45	753.219
1382.18	763.687
1384.91	763.188
1387.64	762.813
1390.37	776.625
1393.09	775.062
1395.82	782.406
1398.54	793.094
1401.26	793
1403.98	801.969
1406.71	803.813
1409.42	807.344
1412.14	816.719
1414.86	821.187
1417.58	826.125
1420.29	828.5
1423.01	833.531
1425.72	836.5
1428.44	841.281
1431.15	847.688
1433.86	853.25
1436.57	858.938
1439.28	855.938
1441.99	862.938
1444.69	864.312
1447.4	869.875
1450.11	871.812
1452.81	884.5
1455.52	887.219
1458.22	891.531
1460.92	890.844
1463.62	897.938
1466.32	900.594
1469.02	908.281
1471.72	910.094
1474.42	913.719
1477.11	920.25
1479.81	928.469
1482.5	934.625
1485.19	940.937
1487.89	945.687
1490.58	943.5
1493.27	950.125
1495.96	959.094
1498.65	957.687
1501.33	971.969
1504.02	973.938
1506.71	980.407
1509.39	979.313
1512.07	987.625
1514.76	990.313
1517.44	993.875
1520.12	999.875
1522.8	1008.19
1525.48	1006.88
1528.16	1012.44
1530.84	1008.91
1533.51	1025.59
1536.19	1029.19
1538.86	1028.12
1541.54	1040.34
1544.21	1045.63
1546.88	1051.34
1549.55	1055.09
1552.22	1055.72
1554.89	1065.41
1557.56	1067.09
1560.22	1067.38
1562.89	1072.31
1565.56	1091.97
1568.22	1088.28
1570.88	1090.91
1573.55	1097.53
1576.21	1107.69
1578.87	1109.28
1581.53	1115.81
1584.19	1122.91
1586.84	1124.69
1589.5	1133.72
1592.16	1134
1594.81	1135.16
1597.47	1138.03
1600.12	1151.41
1602.77	1149.16
1605.42	1153.91
1608.07	1158.75
1610.72	1173.31
1613.37	1165.91
1616.02	1174.16
1618.66	1181.5
1621.31	1185.44
1623.95	1187
1626.6	1196.75
1629.24	1189.5
1631.88	1197.59
1634.53	1199.25
1637.17	1201.5
1639.8	1217.09
1642.44	1229.84
1645.08	1215.88
1647.72	1222.09
1650.35	1228.59
1652.99	1233.81
1655.62	1240.03
1658.25	1240.81
1660.89	1243.72
1663.52	1247.03
1666.15	1251.41
1668.77	1255.78
1671.4	1260.53
1674.03	1261.13
1676.66	1262.06
1679.28	1276.44
1681.91	1277.5
1684.53	1279.47
1687.15	1285.88
1689.77	1293.22
1692.39	1289.28
1695.02	1304.16
1697.63	1305.06
1700.25	1306.84
1702.87	1315
1705.49	1316.69
1708.1	1318.06
1710.72	1324
1713.33	1323.56
1715.94	1338.72
1718.55	1341.53
1721.16	1348.09
1723.77	1355.44
1726.38	1354.72
1728.99	1363.5
1731.6	1359.44
1734.2	1375.19
1736.81	1367.97
1739.41	1382.25
1742.02	1385.31
1744.62	1384.56
1747.22	1389.59
1749.82	1393.88
1752.42	1395.91
1755.02	1392.5
1757.62	1400.84
1760.22	1405.72
1762.81	1402.44
1765.41	1401.75
1768	1408.38
1770.59	1414.25
1773.19	1410.78
1775.78	1415.75
1778.37	1423.97
1780.96	1421.34
1783.55	1427.5
1786.14	1420.25
1788.72	1421.53
1791.31	1421.63
1793.9	1425.22
1796.48	1430.25
1799.06	1433.63
